# Wavelength   Max Optical   Radius at the    Radius
   (microns)         depth   max depth (km)    index
   5.0000000   8.44316e+03       80126.7240     0099
   4.9997500   8.44143e+03       80126.7240     0099
   4.9995000   8.43969e+03       80126.7240     0099
   4.9992501   8.43795e+03       80126.7240     0099
   4.9990002   8.43621e+03       80126.7240     0099
   4.9987503   8.43446e+03       80126.7240     0099
   4.9985004   8.43272e+03       80126.7240     0099
   4.9982506   8.43097e+03       80126.7240     0099
   4.9980008   8.42923e+03       80126.7240     0099
   4.9977510   8.42752e+03       80126.7240     0099
   4.9975012   8.42574e+03       80126.7240     0099
   4.9972515   8.42397e+03       80126.7240     0099
   4.9970018   8.42221e+03       80126.7240     0099
   4.9967521   8.42045e+03       80126.7240     0099
   4.9965024   8.41870e+03       80126.7240     0099
   4.9962528   8.41694e+03       80126.7240     0099
   4.9960032   8.41520e+03       80126.7240     0099
   4.9957536   8.41342e+03       80126.7240     0099
   4.9955040   8.41165e+03       80126.7240     0099
   4.9952545   8.40990e+03       80126.7240     0099
   4.9950050   8.40815e+03       80126.7240     0099
   4.9947555   8.40648e+03       80126.7240     0099
   4.9945060   8.40461e+03       80126.7240     0099
   4.9942566   8.40280e+03       80126.7240     0099
   4.9940072   8.40101e+03       80126.7240     0099
   4.9937578   8.39921e+03       80126.7240     0099
   4.9935084   8.39742e+03       80126.7240     0099
   4.9932591   8.39563e+03       80126.7240     0099
   4.9930098   8.39385e+03       80126.7240     0099
   4.9927605   8.39207e+03       80126.7240     0099
   4.9925112   8.39030e+03       80126.7240     0099
   4.9922620   8.38852e+03       80126.7240     0099
   4.9920128   8.38676e+03       80126.7240     0099
   4.9917636   8.38501e+03       80126.7240     0099
   4.9915144   8.38328e+03       80126.7240     0099
   4.9912653   8.38158e+03       80126.7240     0099
   4.9910162   8.37997e+03       80126.7240     0099
   4.9907671   8.37832e+03       80126.7240     0099
   4.9905180   8.37618e+03       80126.7240     0099
   4.9902690   8.37424e+03       80126.7240     0099
   4.9900200   8.37234e+03       80126.7240     0099
   4.9897710   8.37045e+03       80126.7240     0099
   4.9895220   8.36858e+03       80126.7240     0099
   4.9892731   8.36671e+03       80126.7240     0099
   4.9890241   8.36485e+03       80126.7240     0099
   4.9887753   8.36300e+03       80126.7240     0099
   4.9885264   8.36114e+03       80126.7240     0099
   4.9882775   8.35929e+03       80126.7240     0099
   4.9880287   8.35744e+03       80126.7240     0099
   4.9877799   8.35559e+03       80126.7240     0099
   4.9875312   8.35374e+03       80126.7240     0099
   4.9872824   8.35190e+03       80126.7240     0099
   4.9870337   8.35005e+03       80126.7240     0099
   4.9867850   8.34820e+03       80126.7240     0099
   4.9865364   8.34636e+03       80126.7240     0099
   4.9862877   8.34452e+03       80126.7240     0099
   4.9860391   8.34267e+03       80126.7240     0099
   4.9857905   8.34082e+03       80126.7240     0099
   4.9855419   8.33897e+03       80126.7240     0099
   4.9852934   8.33713e+03       80126.7240     0099
   4.9850449   8.33528e+03       80126.7240     0099
   4.9847964   8.33344e+03       80126.7240     0099
   4.9845479   8.33160e+03       80126.7240     0099
   4.9842995   8.32976e+03       80126.7240     0099
   4.9840510   8.32792e+03       80126.7240     0099
   4.9838026   8.32608e+03       80126.7240     0099
   4.9835543   8.32426e+03       80126.7240     0099
   4.9833059   8.32245e+03       80126.7240     0099
   4.9830576   8.32069e+03       80126.7240     0099
   4.9828093   8.31873e+03       80126.7240     0099
   4.9825610   8.31685e+03       80126.7240     0099
   4.9823128   8.31498e+03       80126.7240     0099
   4.9820646   8.31312e+03       80126.7240     0099
   4.9818164   8.31126e+03       80126.7240     0099
   4.9815682   8.30941e+03       80126.7240     0099
   4.9813200   8.30755e+03       80126.7240     0099
   4.9810719   8.30571e+03       80126.7240     0099
   4.9808238   8.30391e+03       80126.7240     0099
   4.9805758   8.30203e+03       80126.7240     0099
   4.9803277   8.30019e+03       80126.7240     0099
   4.9800797   8.29835e+03       80126.7240     0099
   4.9798317   8.29652e+03       80126.7240     0099
   4.9795837   8.29471e+03       80126.7240     0099
   4.9793358   8.29292e+03       80126.7240     0099
   4.9790878   8.29121e+03       80126.7240     0099
   4.9788399   8.28973e+03       80126.7240     0099
   4.9785921   8.28757e+03       80126.7240     0099
   4.9783442   8.28546e+03       80126.7240     0099
   4.9780964   8.28345e+03       80126.7240     0099
   4.9778486   8.28149e+03       80126.7240     0099
   4.9776008   8.27954e+03       80126.7240     0099
   4.9773530   8.27761e+03       80126.7240     0099
   4.9771053   8.27568e+03       80126.7240     0099
   4.9768576   8.27376e+03       80126.7240     0099
   4.9766099   8.27185e+03       80126.7240     0099
   4.9763623   8.26994e+03       80126.7240     0099
   4.9761146   8.26803e+03       80126.7240     0099
   4.9758670   8.26612e+03       80126.7240     0099
   4.9756195   8.26422e+03       80126.7240     0099
   4.9753719   8.26232e+03       80126.7240     0099
   4.9751244   8.26042e+03       80126.7240     0099
   4.9748769   8.25852e+03       80126.7240     0099
   4.9746294   8.25663e+03       80126.7240     0099
   4.9743819   8.25473e+03       80126.7240     0099
   4.9741345   8.25284e+03       80126.7240     0099
   4.9738871   8.25095e+03       80126.7240     0099
   4.9736397   8.24906e+03       80126.7240     0099
   4.9733924   8.24717e+03       80126.7240     0099
   4.9731450   8.24528e+03       80126.7240     0099
   4.9728977   8.24340e+03       80126.7240     0099
   4.9726504   8.24152e+03       80126.7240     0099
   4.9724032   8.23964e+03       80126.7240     0099
   4.9721559   8.23777e+03       80126.7240     0099
   4.9719087   8.23591e+03       80126.7240     0099
   4.9716615   8.23413e+03       80126.7240     0099
   4.9714144   8.23216e+03       80126.7240     0099
   4.9711672   8.23023e+03       80126.7240     0099
   4.9709201   8.22831e+03       80126.7240     0099
   4.9706730   8.22641e+03       80126.7240     0099
   4.9704260   8.22452e+03       80126.7240     0099
   4.9701789   8.22263e+03       80126.7240     0099
   4.9699319   8.22076e+03       80126.7240     0099
   4.9696849   8.21889e+03       80126.7240     0099
   4.9694380   8.21700e+03       80126.7240     0099
   4.9691910   8.21510e+03       80126.7240     0099
   4.9689441   8.21321e+03       80126.7240     0099
   4.9686972   8.21134e+03       80126.7240     0099
   4.9684503   8.20947e+03       80126.7240     0099
   4.9682035   8.20762e+03       80126.7240     0099
   4.9679567   8.20577e+03       80126.7240     0099
   4.9677099   8.20392e+03       80126.7240     0099
   4.9674631   8.20211e+03       80126.7240     0099
   4.9672164   8.20034e+03       80126.7240     0099
   4.9669697   8.19875e+03       80126.7240     0099
   4.9667230   8.19687e+03       80126.7240     0099
   4.9664763   8.19463e+03       80126.7240     0099
   4.9662296   8.19258e+03       80126.7240     0099
   4.9659830   8.19057e+03       80126.7240     0099
   4.9657364   8.18860e+03       80126.7240     0099
   4.9654898   8.18667e+03       80126.7240     0099
   4.9652433   8.18469e+03       80126.7240     0099
   4.9649968   8.18273e+03       80126.7240     0099
   4.9647503   8.18079e+03       80126.7240     0099
   4.9645038   8.17886e+03       80126.7240     0099
   4.9642573   8.17693e+03       80126.7240     0099
   4.9640109   8.17500e+03       80126.7240     0099
   4.9637645   8.17308e+03       80126.7240     0099
   4.9635181   8.17117e+03       80126.7240     0099
   4.9632718   8.16926e+03       80126.7240     0099
   4.9630255   8.16734e+03       80126.7240     0099
   4.9627792   8.16543e+03       80126.7240     0099
   4.9625329   8.16353e+03       80126.7240     0099
   4.9622866   8.16162e+03       80126.7240     0099
   4.9620404   8.15972e+03       80126.7240     0099
   4.9617942   8.15783e+03       80126.7240     0099
   4.9615480   8.15593e+03       80126.7240     0099
   4.9613018   8.15405e+03       80126.7240     0099
   4.9610557   8.15217e+03       80126.7240     0099
   4.9608096   8.15029e+03       80126.7240     0099
   4.9605635   8.14844e+03       80126.7240     0099
   4.9603175   8.14665e+03       80126.7240     0099
   4.9600714   8.14469e+03       80126.7240     0099
   4.9598254   8.14275e+03       80126.7240     0099
   4.9595794   8.14084e+03       80126.7240     0099
   4.9593335   8.13894e+03       80126.7240     0099
   4.9590875   8.13707e+03       80126.7240     0099
   4.9588416   8.13518e+03       80126.7240     0099
   4.9585957   8.13331e+03       80126.7240     0099
   4.9583499   8.13152e+03       80126.7240     0099
   4.9581040   8.12956e+03       80126.7240     0099
   4.9578582   8.12763e+03       80126.7240     0099
   4.9576124   8.12574e+03       80126.7240     0099
   4.9573666   8.12387e+03       80126.7240     0099
   4.9571209   8.12197e+03       80126.7240     0099
   4.9568752   8.12009e+03       80126.7240     0099
   4.9566295   8.11822e+03       80126.7240     0099
   4.9563838   8.11637e+03       80126.7240     0099
   4.9561382   8.11453e+03       80126.7240     0099
   4.9558926   8.11272e+03       80126.7240     0099
   4.9556470   8.11094e+03       80126.7240     0099
   4.9554014   8.10922e+03       80126.7240     0099
   4.9551558   8.10770e+03       80126.7240     0099
   4.9549103   8.10580e+03       80126.7240     0099
   4.9546648   8.10359e+03       80126.7240     0099
   4.9544193   8.10152e+03       80126.7240     0099
   4.9541739   8.09949e+03       80126.7240     0099
   4.9539285   8.09750e+03       80126.7240     0099
   4.9536831   8.09553e+03       80126.7240     0099
   4.9534377   8.09358e+03       80126.7240     0099
   4.9531923   8.09164e+03       80126.7240     0099
   4.9529470   8.08971e+03       80126.7240     0099
   4.9527017   8.08780e+03       80126.7240     0099
   4.9524564   8.08587e+03       80126.7240     0099
   4.9522112   8.08396e+03       80126.7240     0099
   4.9519659   8.08205e+03       80126.7240     0099
   4.9517207   8.08015e+03       80126.7240     0099
   4.9514755   8.07825e+03       80126.7240     0099
   4.9512304   8.07636e+03       80126.7240     0099
   4.9509852   8.07447e+03       80126.7240     0099
   4.9507401   8.07259e+03       80126.7240     0099
   4.9504950   8.07072e+03       80126.7240     0099
   4.9502500   8.06883e+03       80126.7240     0099
   4.9500050   8.06696e+03       80126.7240     0099
   4.9497599   8.06510e+03       80126.7240     0099
   4.9495149   8.06325e+03       80126.7240     0099
   4.9492700   8.06143e+03       80126.7240     0099
   4.9490250   8.05983e+03       80126.7240     0099
   4.9487801   8.05769e+03       80126.7240     0099
   4.9485352   8.05579e+03       80126.7240     0099
   4.9482904   8.05388e+03       80126.7240     0099
   4.9480455   8.05199e+03       80126.7240     0099
   4.9478007   8.05011e+03       80126.7240     0099
   4.9475559   8.04824e+03       80126.7240     0099
   4.9473111   8.04637e+03       80126.7240     0099
   4.9470664   8.04451e+03       80126.7240     0099
   4.9468217   8.04266e+03       80126.7240     0099
   4.9465770   8.04081e+03       80126.7240     0099
   4.9463323   8.03895e+03       80126.7240     0099
   4.9460876   8.03710e+03       80126.7240     0099
   4.9458430   8.03525e+03       80126.7240     0099
   4.9455984   8.03342e+03       80126.7240     0099
   4.9453538   8.03159e+03       80126.7240     0099
   4.9451093   8.02977e+03       80126.7240     0099
   4.9448648   8.02796e+03       80126.7240     0099
   4.9446203   8.02617e+03       80126.7240     0099
   4.9443758   8.02439e+03       80126.7240     0099
   4.9441313   8.02264e+03       80126.7240     0099
   4.9438869   8.02092e+03       80126.7240     0099
   4.9436425   8.01931e+03       80126.7240     0099
   4.9433981   8.01825e+03       80126.7240     0099
   4.9431537   8.01576e+03       80126.7240     0099
   4.9429094   8.01360e+03       80126.7240     0099
   4.9426651   8.01156e+03       80126.7240     0099
   4.9424208   8.00959e+03       80126.7240     0099
   4.9421765   8.00765e+03       80126.7240     0099
   4.9419323   8.00573e+03       80126.7240     0099
   4.9416881   8.00383e+03       80126.7240     0099
   4.9414439   8.00193e+03       80126.7240     0099
   4.9411997   8.00005e+03       80126.7240     0099
   4.9409556   7.99817e+03       80126.7240     0099
   4.9407115   7.99630e+03       80126.7240     0099
   4.9404674   7.99443e+03       80126.7240     0099
   4.9402233   7.99257e+03       80126.7240     0099
   4.9399793   7.99071e+03       80126.7240     0099
   4.9397352   7.98887e+03       80126.7240     0099
   4.9394912   7.98702e+03       80126.7240     0099
   4.9392473   7.98518e+03       80126.7240     0099
   4.9390033   7.98335e+03       80126.7240     0099
   4.9387594   7.98153e+03       80126.7240     0099
   4.9385155   7.97972e+03       80126.7240     0099
   4.9382716   7.97793e+03       80126.7240     0099
   4.9380278   7.97617e+03       80126.7240     0099
   4.9377839   7.97431e+03       80126.7240     0099
   4.9375401   7.97239e+03       80126.7240     0099
   4.9372963   7.97052e+03       80126.7240     0099
   4.9370526   7.96867e+03       80126.7240     0099
   4.9368088   7.96683e+03       80126.7240     0099
   4.9365651   7.96499e+03       80126.7240     0099
   4.9363215   7.96317e+03       80126.7240     0099
   4.9360778   7.96136e+03       80126.7240     0099
   4.9358342   7.95952e+03       80126.7240     0099
   4.9355905   7.95769e+03       80126.7240     0099
   4.9353470   7.95586e+03       80126.7240     0099
   4.9351034   7.95403e+03       80126.7240     0099
   4.9348598   7.95221e+03       80126.7240     0099
   4.9346163   7.95040e+03       80126.7240     0099
   4.9343728   7.94860e+03       80126.7240     0099
   4.9341294   7.94680e+03       80126.7240     0099
   4.9338859   7.94501e+03       80126.7240     0099
   4.9336425   7.94324e+03       80126.7240     0099
   4.9333991   7.94147e+03       80126.7240     0099
   4.9331557   7.93973e+03       80126.7240     0099
   4.9329124   7.93796e+03       80126.7240     0099
   4.9326691   7.93623e+03       80126.7240     0099
   4.9324258   7.93455e+03       80126.7240     0099
   4.9321825   7.93293e+03       80126.7240     0099
   4.9319392   7.93157e+03       80126.7240     0099
   4.9316960   7.92973e+03       80126.7240     0099
   4.9314528   7.92747e+03       80126.7240     0099
   4.9312096   7.92544e+03       80126.7240     0099
   4.9309665   7.92349e+03       80126.7240     0099
   4.9307233   7.92157e+03       80126.7240     0099
   4.9304802   7.91968e+03       80126.7240     0099
   4.9302371   7.91782e+03       80126.7240     0099
   4.9299941   7.91594e+03       80126.7240     0099
   4.9297510   7.91409e+03       80126.7240     0099
   4.9295080   7.91224e+03       80126.7240     0099
   4.9292650   7.91040e+03       80126.7240     0099
   4.9290221   7.90857e+03       80126.7240     0099
   4.9287791   7.90674e+03       80126.7240     0099
   4.9285362   7.90492e+03       80126.7240     0099
   4.9282933   7.90311e+03       80126.7240     0099
   4.9280505   7.90131e+03       80126.7240     0099
   4.9278076   7.89950e+03       80126.7240     0099
   4.9275648   7.89770e+03       80126.7240     0099
   4.9273220   7.89592e+03       80126.7240     0099
   4.9270792   7.89419e+03       80126.7240     0099
   4.9268365   7.89240e+03       80126.7240     0099
   4.9265938   7.89049e+03       80126.7240     0099
   4.9263511   7.88864e+03       80126.7240     0099
   4.9261084   7.88681e+03       80126.7240     0099
   4.9258657   7.88500e+03       80126.7240     0099
   4.9256231   7.88319e+03       80126.7240     0099
   4.9253805   7.88137e+03       80126.7240     0099
   4.9251379   7.87955e+03       80126.7240     0099
   4.9248953   7.87774e+03       80126.7240     0099
   4.9246528   7.87593e+03       80126.7240     0099
   4.9244103   7.87413e+03       80126.7240     0099
   4.9241678   7.87234e+03       80126.7240     0099
   4.9239254   7.87055e+03       80126.7240     0099
   4.9236829   7.86876e+03       80126.7240     0099
   4.9234405   7.86698e+03       80126.7240     0099
   4.9231981   7.86521e+03       80126.7240     0099
   4.9229557   7.86344e+03       80126.7240     0099
   4.9227134   7.86167e+03       80126.7240     0099
   4.9224711   7.85992e+03       80126.7240     0099
   4.9222288   7.85817e+03       80126.7240     0099
   4.9219865   7.85643e+03       80126.7240     0099
   4.9217443   7.85471e+03       80126.7240     0099
   4.9215020   7.85301e+03       80126.7240     0099
   4.9212598   7.85132e+03       80126.7240     0099
   4.9210177   7.84968e+03       80126.7240     0099
   4.9207755   7.84812e+03       80126.7240     0099
   4.9205334   7.84681e+03       80126.7240     0099
   4.9202913   7.84507e+03       80126.7240     0099
   4.9200492   7.84276e+03       80126.7240     0099
   4.9198071   7.84074e+03       80126.7240     0099
   4.9195651   7.83880e+03       80126.7240     0099
   4.9193231   7.83690e+03       80126.7240     0099
   4.9190811   7.83502e+03       80126.7240     0099
   4.9188392   7.83317e+03       80126.7240     0099
   4.9185972   7.83133e+03       80126.7240     0099
   4.9183553   7.82950e+03       80126.7240     0099
   4.9181134   7.82768e+03       80126.7240     0099
   4.9178715   7.82588e+03       80126.7240     0099
   4.9176297   7.82406e+03       80126.7240     0099
   4.9173879   7.82226e+03       80126.7240     0099
   4.9171461   7.82046e+03       80126.7240     0099
   4.9169043   7.81868e+03       80126.7240     0099
   4.9166626   7.81691e+03       80126.7240     0099
   4.9164208   7.81516e+03       80126.7240     0099
   4.9161791   7.81349e+03       80126.7240     0099
   4.9159375   7.81164e+03       80126.7240     0099
   4.9156958   7.80976e+03       80126.7240     0099
   4.9154542   7.80795e+03       80126.7240     0099
   4.9152126   7.80611e+03       80126.7240     0099
   4.9149710   7.80429e+03       80126.7240     0099
   4.9147294   7.80249e+03       80126.7240     0099
   4.9144879   7.80069e+03       80126.7240     0099
   4.9142464   7.79890e+03       80126.7240     0099
   4.9140049   7.79711e+03       80126.7240     0099
   4.9137635   7.79533e+03       80126.7240     0099
   4.9135220   7.79355e+03       80126.7240     0099
   4.9132806   7.79179e+03       80126.7240     0099
   4.9130392   7.79001e+03       80126.7240     0099
   4.9127978   7.78824e+03       80126.7240     0099
   4.9125565   7.78647e+03       80126.7240     0099
   4.9123152   7.78472e+03       80126.7240     0099
   4.9120739   7.78296e+03       80126.7240     0099
   4.9118326   7.78121e+03       80126.7240     0099
   4.9115914   7.77947e+03       80126.7240     0099
   4.9113501   7.77773e+03       80126.7240     0099
   4.9111089   7.77601e+03       80126.7240     0099
   4.9108678   7.77429e+03       80126.7240     0099
   4.9106266   7.77258e+03       80126.7240     0099
   4.9103855   7.77089e+03       80126.7240     0099
   4.9101444   7.76922e+03       80126.7240     0099
   4.9099033   7.76758e+03       80126.7240     0099
   4.9096622   7.76600e+03       80126.7240     0099
   4.9094212   7.76452e+03       80126.7240     0099
   4.9091802   7.76355e+03       80126.7240     0099
   4.9089392   7.76124e+03       80126.7240     0099
   4.9086982   7.75905e+03       80126.7240     0099
   4.9084573   7.75706e+03       80126.7240     0099
   4.9082164   7.75514e+03       80126.7240     0099
